Time,Force
0,0.15
0.5,0.16
1,0.17
1.5,0.18
2,0.19
2.5,0.21
3,0.23
3.5,0.24
4,0.26
4.5,0.28
5,0.31
5.5,0.33
6,0.36
6.5,0.39
7,0.42
7.5,0.45
8,0.49
8.5,0.53
9,0.58
9.5,0.62
10,0.68
10.5,0.74
11,0.81
11.5,0.88
12,0.96
12.5,1.06
13,1.17
13.5,1.28
14,1.41
14.5,1.54
15,1.7
15.5,1.86
16,2.04
16.5,2.24
17,2.45
17.5,2.68
18,2.92
18.5,3.2
19,3.49
19.5,3.81
20,4.15
20.5,4.54
21,4.94
21.5,5.39
22,5.87
22.5,6.39
23,6.95
23.5,7.56
24,8.19
24.5,8.89
25,9.61
