Time,Force
0,0.15
0.5,0.16
1,0.18
1.5,0.2
2,0.22
2.5,0.24
3,0.27
3.5,0.3
4,0.33
4.5,0.37
5,0.41
5.5,0.46
6,0.51
6.5,0.57
7,0.63
7.5,0.7
8,0.78
8.5,0.9
9,0.99
9.5,1.1
10,1.23
10.5,1.37
11,1.51
11.5,1.68
12,1.85
12.5,2.05
13,2.27
13.5,2.52
14,2.78
14.5,3.07
15,3.38
15.5,3.72
16,4.1
16.5,4.52
17,4.97
17.5,5.47
18,6
18.5,6.58
19,7.23
19.5,7.91
20,8.66
20.5,9.45
